# Wavelenth(micron)	F_planet(10^-6 erg/cm^2/s/Hz)
0.30005903563735375	1.946389703491063e-06
0.3003592447525199	2.0095651713958034e-06
0.3006597542269558	2.0755138840023453e-06
0.300960564361171	2.1382187981449446e-06
0.30126167545597554	2.1995748346843866e-06
0.3015630878124805	2.2498788194928616e-06
0.30186480173209856	2.295934590234333e-06
0.30216681751654345	2.3513224156626275e-06
0.30246913546783105	2.3518659934796346e-06
0.3027717558882791	2.382480711288216e-06
0.3030746790805082	2.4625956372288964e-06
0.30337790534744163	2.535099994069378e-06
0.30368143499230554	2.595631022508598e-06
0.3039852683186298	2.6679810397380423e-06
0.3042894056302477	2.7220551940004528e-06
0.30459384723129695	2.7729545900765017e-06
0.3048985934262188	2.8366093275589165e-06
0.30520364451975973	2.89997356593685e-06
0.3055090008169708	2.9131468644074087e-06
0.3058146626232074	2.993873000988201e-06
0.30612063024413205	3.0732016744880015e-06
0.30642690398571265	3.1483815108038858e-06
0.30673348415422236	3.2231963796725653e-06
0.30704037105624177	3.289560920149908e-06
0.3073475649986577	3.330969205929373e-06
0.30765506628866374	3.4132823395649083e-06
0.3079628752337625	3.497598226348092e-06
0.3082709921417617	3.5255128388238443e-06
0.30857941732077815	3.6313526099376087e-06
0.30888815107923795	3.7149298402621737e-06
0.30919719372587473	3.7868178557531863e-06
0.30950654556973123	3.8047996281735455e-06
0.30981620692015943	3.9347397598031e-06
0.31012617808682075	4.005715979219203e-06
0.31043645937968534	4.102654387634872e-06
0.3107470511090351	4.198468037078062e-06
0.3110579535854616	4.295701823871723e-06
0.3113691671198673	4.378729700366995e-06
0.31168069202346704	4.4777108024419635e-06
0.31199252860778476	4.573496679497522e-06
0.31230467718465704	4.671093311579493e-06
0.31261713806623304	4.76920470155731e-06
0.3129299115649728	4.828431339888807e-06
0.3132429979936502	4.925598297967504e-06
0.31355639766535176	5.03685275217821e-06
0.3138701108934763	5.1493326433262355e-06
0.31418413799173767	5.2605000869462344e-06
0.31449847927416325	5.369650406996923e-06
0.3148131350550942	5.482015168810309e-06
0.31512810564918703	5.5934280796519e-06
0.3154433913714119	5.7058762575546825e-06
0.31575899253705464	5.810625213436693e-06
0.3160749094617161	5.90112560551391e-06
0.3163911424613123	6.030828544154443e-06
0.3167076918520775	6.160008005418548e-06
0.3170245579505614	6.2938437028689805e-06
0.3173417410736292	6.422202091636716e-06
0.3176592415384646	6.551539785219794e-06
0.3179770596625682	6.680994753995128e-06
0.31829519576375775	6.8091552768973144e-06
0.31861365016017007	6.94813271925607e-06
0.3189324231702587	7.065734685516432e-06
0.31925151511279676	7.206719844930542e-06
0.3195709263068769	7.355475023703227e-06
0.31989065707190945	7.506406401298929e-06
0.32021070772762594	7.659400654557468e-06
0.32053107859407703	7.811294498917362e-06
0.3208517699916327	7.962754019917944e-06
0.32117278224098533	8.10900834815155e-06
0.32149411566314745	8.271602216319156e-06
0.32181577057945177	8.43516432719325e-06
0.32213774731155354	8.590052475910794e-06
0.32246004618142987	8.763095062903767e-06
0.32278266751137896	8.935987610624334e-06
0.323105611624022	9.115843258721942e-06
0.32342887884230354	9.294276476768191e-06
0.32375246948949077	9.474237347308478e-06
0.32407638388917476	9.640121227620877e-06
0.3244006223652699	9.832672540242169e-06
0.3247251852420147	1.0027041095340547e-05
0.3250500728439716	1.0220197036753267e-05
0.32537528549602773	1.0416355421604337e-05
0.32570082352339647	1.061968728843387e-05
0.32602668725161615	1.0826128410651647e-05
0.3263528770065502	1.103520998966775e-05
0.32667939311438926	1.1247501943772944e-05
0.3270062359016485	1.1449170271413407e-05
0.3273334056951695	1.1665130644448045e-05
0.32766090282212285	1.1893241273236588e-05
0.32798872761000714	1.2122833162039123e-05
0.32831688038664697	1.2355396934326344e-05
0.32864536148019385	1.2590507397883026e-05
0.3289741712191297	1.2831889536585135e-05
0.32930330993226514	1.3076602894554579e-05
0.32963277794873797	1.3323414054110603e-05
0.32996257559801523	1.3572210385266369e-05
0.33029270320989507	1.3816479666511e-05
0.3306231611145066	1.4082250756108401e-05
0.3309539496423071	1.4349803399172063e-05
0.3312850691240847	1.462346062655063e-05
0.33161651989095925	1.4899719862265101e-05
0.3319483022743805	1.5180234635026019e-05
0.3322804166061314	1.5466228275242713e-05
0.3326128632183269	1.575298436636616e-05
0.3329456424434135	1.603588580138672e-05
0.3332787546141702	1.6309043006257564e-05
0.33361220006370884	1.659639492022636e-05
0.333945979125476	1.6957103546359763e-05
0.3342800921332507	1.7274698922744456e-05
0.3346145394211455	1.7595540532504922e-05
0.33494932132360705	1.792359178571141e-05
0.33528443817541764	1.825557918638518e-05
0.3356198903116948	1.859365788057508e-05
0.33595567806788895	1.8936500655017843e-05
0.33629180177978923	1.9280983266055055e-05
0.33662826178351984	1.9636413398183876e-05
0.3369650584155399	2.0000285336492245e-05
0.33730219201264616	2.0369980070400146e-05
0.337639662911973	2.074590502711668e-05
0.33797747145099094	2.1128006575719927e-05
0.3383156179675081	2.1515690523838792e-05
0.3386541027996724	2.1908895571400785e-05
0.3389929262859681	2.2304503778240985e-05
0.3393320887652174	2.2714122768036124e-05
0.33967159057658325	2.312932411247569e-05
0.3400114320595682	2.354744089158916e-05
0.34035161355401444	2.3978060551763822e-05
0.34069213540010307	2.441492487772527e-05
0.34103299793835534	2.485913034217004e-05
0.34137420150963343	2.5310698614430005e-05
0.3417157464551409	2.5769139556812135e-05
0.3420576331164234	2.622989445034999e-05
0.3423998618353671	2.670325200573082e-05
0.3427424329542007	2.718714502441046e-05
0.34308534681549624	2.767768055838105e-05
0.3434286037621676	2.8175492572332664e-05
0.3437722041374721	2.8682788979739225e-05
0.34411614828500847	2.9199038587580535e-05
0.3444604365487217	2.972272386222366e-05
0.34480506927290067	3.025579787723669e-05
0.34515004680217665	3.0794837543649754e-05
0.3454953694815278	3.1340997735428166e-05
0.34584103765627777	3.190247565337426e-05
0.34618705167209435	3.247202564326415e-05
0.3465334118749911	3.30513317398841e-05
0.3468801186113284	3.363885631222062e-05
0.34722717222781396	3.423761943929393e-05
0.3475745730715008	3.48443396107037e-05
0.34792232148978935	3.5462707217134146e-05
0.3482704178304284	3.608988643019525e-05
0.3486188624415139	3.672497482319969e-05
0.3489676556714908	3.737081778152136e-05
0.3493167978691525	3.8032807518009665e-05
0.34966628938364114	3.870370283175355e-05
0.35001613056444836	3.938535115762897e-05
0.3503663217614157	4.007765530568567e-05
0.3507168633247337	4.078163626935273e-05
0.3510677556049435	4.14967131395545e-05
0.35141899895293816	4.222214054848134e-05
0.35177059371996156	4.296043569447711e-05
0.35212254025760836	4.3708382578444126e-05
0.35247483891782416	4.4471611048952466e-05
0.35282749005290864	4.524699802809999e-05
0.3531804940155126	4.603536611312811e-05
0.35353385115863967	4.683627763468966e-05
0.35388756183564807	4.764987421180098e-05
0.3542416264002475	4.847630186547174e-05
0.35459604520650223	4.9315182033527295e-05
0.35495081860883215	5.0167550324168874e-05
0.3553059469620101	5.1035044663076746e-05
0.35566143062116456	5.191388360105282e-05
0.3560172699417795	5.2810053157326784e-05
0.356373465279694	5.371963650264802e-05
0.35673001699110324	5.4644189161210066e-05
0.3570869254325594	5.558300172213099e-05
0.3574441909609705	5.6536960743205385e-05
0.35780181393360216	5.750589282926827e-05
0.3581597947080773	5.8488193345599154e-05
0.3585181336423769	5.9488271883168564e-05
0.35887683109484053	6.05045676698203e-05
0.3592358874241651	6.153587882631057e-05
0.3595953029894069	6.258453851849878e-05
0.3599550781499817	6.364977798128116e-05
0.36031521326566457	6.473183908624316e-05
0.3606757086965913	6.583060745996103e-05
0.361036564803257	6.694679690030352e-05
0.36139778194651695	6.807957422138356e-05
0.36175936048758894	6.922989696481525e-05
0.36212130078805094	7.039984110438087e-05
0.3624836032098437	7.15783715914824e-05
0.36284626811526954	7.279437745420912e-05
0.36320929586699424	7.398808540577701e-05
0.36357268682804506	7.526472723302433e-05
0.3639364413618126	7.652890706605471e-05
0.36430055983205223	7.781244573494584e-05
0.364665042602882	7.906987757961886e-05
0.36502989003878483	8.04382339564502e-05
0.3653951025046079	8.178254869329486e-05
0.36576068036556375	8.314793121273679e-05
0.3661266239872305	8.453472409409741e-05
0.3664929337355513	8.594240230585154e-05
0.36685960997683714	8.73720443688168e-05
0.3672266530777639	8.882381720729466e-05
0.367594063405374	9.029753193110074e-05
0.36796184132707804	9.179403194963922e-05
0.36832998721065424	9.331336269227081e-05
0.36869850142424837	9.485497534247113e-05
0.36906738433637487	9.64214669620845e-05
0.3694366363159162	9.801233597649838e-05
0.3698062577321236	9.962725816464462e-05
0.37017624895461987	0.00010126673632676554
0.370546610353396	0.00010293116172583335
0.3709173422988131	0.00010462091598427928
0.3712884451616033	0.00010633631835920748
0.3716599193128703	0.00010807720422445922
0.3720317651240883	0.00010984491143952752
0.3724039829671021	0.0001116386157453001
0.37277657321412927	0.00011346055228701868
0.37314953623776065	0.00011530989336980671
0.3735228724109598	0.0001171871529370685
0.37389658210706284	0.000119092662171339
0.3742706656997787	0.00012102674102851645
0.3746451235631912	0.00012298983677567718
0.37501995607175836	0.00012498180317340723
0.3753951636003123	0.0001270037443908808
0.37577074652406117	0.00012905679892308934
0.376146705218588	0.0001311396065288448
0.37652304005985093	0.00013325416639071094
0.3768997514241862	0.00013540014588582123
0.37727683968830467	0.00013757813917644716
0.3776543052292933	0.00013978844178438385
0.37803214842461885	0.00014203151839109883
0.37841036965212516	0.00014430785812392425
0.3787889692900325	0.00014661741871277033
0.3791679477169404	0.0001489612536360359
0.379547305311827	0.00015134017522847116
0.3799270424540503	0.00015375387121177147
0.380307159523348	0.00015620341157630445
0.3806876568998369	0.00015868890681500664
0.3810685349640144	0.00016121093507785516
0.3814497940967586	0.00016376998258956605
0.38183143467932895	0.0001663664494100716
0.3822134570933656	0.00016900094362818814
0.38259586172089083	0.00017167316154150726
0.38297864894430983	0.00017285367859973973
0.3833618191464097	0.0001749994785779041
0.3837453727103603	0.00017913803066500113
0.3841293100197161	0.00018100200408560237
0.384513631458414	0.0001856337826240828
0.38489833741077456	0.00018854871676189777
0.3852834282615044	0.00019150603825600983
0.38566890439569507	0.00019450578818543614
0.3860547661988226	0.00019754917156296483
0.3864410140567483	0.00020063567619568165
0.38682764835572003	0.00020376733410069553
0.38721466948237254	0.0002069430059104407
0.38760207782372696	0.0002101655071039501
0.38798987376719146	0.00021343470662738573
0.38837805770056205	0.0002167502898007591
0.38876663001202283	0.00022011302848618837
0.38915559109014614	0.00022352374188836717
0.38954494132389356	0.00022698338139056493
0.3899346811026145	0.00023049197749775135
0.3903248108160484	0.00023405001097715153
0.3907153308543251	0.00023765942067196822
0.39110624160796537	0.00024131987036535735
0.3914975434678802	0.0002450320751250095
0.3918892368253715	0.00024879643975794736
0.39228132207213195	0.0002526130446294738
0.3926737996002461	0.000256480139473231
0.39306666980219274	0.00026037351171508014
0.39345993307084226	0.0002549665933319748
0.39385358979945745	0.0002683806363881737
0.3942476403816957	0.0002725198358016966
0.3946420852116072	0.0002744022873685176
0.39503692468363627	0.0002808824748684803
0.3954321591926224	0.0002851601321920704
0.3958277891338011	0.00028946677623546246
0.3962238149028023	0.0002910604357313454
0.3966202368956511	0.00029829049583998766
0.3970170555087703	0.0002947680178905035
0.3974142711389785	0.0003073621748239706
0.39781188418349056	0.0003120538778526765
0.3982098950399201	0.0003167597367644407
0.3986083041062777	0.0003215288231031447
0.39900711178097215	0.00032636324704011317
0.3994063184628117	0.0003312647328382278
0.39980592455100306	0.0003362336530037552
0.40020593044515235	0.00034127049112777356
0.4006063365452655	0.00034637624577639096
0.4010071432517482	0.0003515525289724818
0.4014083509654077	0.0003567986878865432
0.4018099600874517	0.0003621180668166456
0.4022119710194891	0.0003675098794907867
0.40261438416353124	0.0003729758756111627
0.40301719992199064	0.0003785164236104591
0.40342041869768314	0.0003841325428691926
0.40382404089382873	0.000389818951587358
0.40422806691404894	0.00039558942826032635
0.40463249716236893	0.0004014376558882744
0.40503733204321946	0.00040736566537828293
0.4054425719614362	0.00041337268469268337
0.40584821732225845	0.000419455476562801
0.406254268531332	0.0004256262234346059
0.40666072599470804	0.0004318807808812869
0.40706759011884386	0.000438220176195817
0.40747486131060406	0.0004446441336249095
0.4078825399772598	0.00045114834483228573
0.4082906265264887	0.00045774233318859056
0.40869912136637737	0.0004644290801336719
0.40910802490542203	0.0004712050494419932
0.4095173375525259	0.0004780651880431012
0.40992705971700066	0.00048501776645467975
0.41033719180856965	0.0004920699919566506
0.41074773423736516	0.0004992147652323923
0.41115868741392897	0.0005064529441658228
0.4115700517492145	0.0005137882573540697
0.41198182765458635	0.0005212118455000941
0.41239401554182037	0.0005287422169981367
0.41280661582310413	0.0005363721644489012
0.4132196289110381	0.0005441017422394818
0.41363305521863547	0.0005519280378427785
0.41404689515932186	0.000559862892927549
0.41446114914693805	0.0005679022539801697
0.4148758175957384	0.0005760475253011681
0.41529090092039056	0.000584276361364913
0.4157063995359777	0.0005926261083339115
0.41612231385799897	0.0006010985031826123
0.4165386443023692	0.0006096795775332998
0.41695539128541836	0.0006183652420941645
0.4173725552238928	0.000627171259660385
0.41779013653495684	0.0006360230284648313
0.41820813563619214	0.0006450700137111008
0.41862655294559853	0.0006542243287817014
0.4190453888815931	0.0006634998136479849
0.4194646438630111	0.0006728920545426063
0.419884318309108	0.0006823321664154836
0.4203044126395589	0.0006919509271985152
0.4207249272744568	0.0007017029739876247
0.4211458626343166	0.0007115450792857932
0.421567219140075	0.0007214715696765127
0.42198899721308825	0.0007312520612703953
0.42241119727513277	0.0007389838149295241
0.4228338197484091	0.0006548472887276707
0.42325686505554083	0.0007611425979455491
0.423680333619573	0.0007732376311698356
0.42410422586397456	0.0007842106927935416
0.4245285422126373	0.0007952613779232283
0.4249532830898771	0.0008063910537683915
0.4253784489204354	0.0008176387894381302
0.42580404012947815	0.0008289905253128071
0.42623005714259626	0.0008404994012315413
0.4266565003858075	0.0008521722214919289
0.4270833702855548	0.0008639758063185474
0.4275106672687079	0.0008759183843383843
0.42793839176256293	0.0008880018667653107
0.4283665441948454	0.0008997298519221522
0.42879512499370814	0.0009126853448349206
0.4292241345877311	0.000924743042104302
0.4296535734059238	0.0009379422569784375
0.4300834418777262	0.0009504423420085151
0.4305137404330073	0.0009620988020922261
0.4309444695020643	0.0009761360255436883
0.4313756295156262	0.0009901260487207302
0.43180722090485346	0.0010031193579158174
0.4322392441013378	0.0010174150502931052
0.43267169953710305	0.0010310973095558496
0.4331045876446034	0.0010447035941542145
0.43353790885672777	0.0010591159960697313
0.43397166360679784	0.0010736028972919735
0.4344058523285671	0.0010882486539658736
0.4348404754562242	0.0011030685910536457
0.4352755334243927	0.001117154766178595
0.4357110266681317	0.001132641443845348
0.4361469556229332	0.0011480879305064608
0.4365833207247264	0.001163657566130327
0.4370201224098773	0.00117921833276135
0.43745736111518657	0.0011947793042970862
0.43789503727789286	0.0012110698856299946
0.4383331513356728	0.0012274181558849233
0.4387717037266415	0.0012439508729518458
0.43921069488935105	0.0012603095634152691
0.4396501252627919	0.0012772593671154513
0.4400899952863943	0.0012944233238923225
0.4405303054000284	0.0013117645898857587
0.44097105604400455	0.0013291574847600829
0.44141224765907355	0.0013467937545346127
0.4418538806864275	0.0013648007942532643
0.44229595556769846	0.0013829168317182163
0.44273847274496153	0.0014005909418763438
0.44318143266073473	0.001419749635699658
0.4436248357579766	0.0014366196556181937
0.4440686824800909	0.001457628910512845
0.4445129732709252	0.0014767948405582463
0.44495770857476963	0.0014962979185734592
0.44540288883635953	0.0015138729884977959
0.44584851450087576	0.0015353605426485155
0.44629458601394356	0.001556008292634597
0.4467411038216344	0.001575029374335963
0.44718806837046604	0.0015922662090120418
0.4476354801074035	0.0016145914916448063
0.4480833394798593	0.0016363712332729938
0.4485316469356919	0.0016580722034511945
0.44898040292320845	0.0016801853983423615
0.44942960789116476	0.0016962384491748504
0.4498792622887662	0.001720825538585242
0.4503293665656675	0.0017439476104367374
0.4507799211719727	0.0017674085246571056
0.45123092655823627	0.001790891574683947
0.45168238317546366	0.0018100434641618928
0.45213429147511197	0.001835299273782671
0.45258665190909014	0.0018600651078870668
0.45303946492975733	0.001884918416992513
0.4534927309899271	0.0019087523680765058
0.45394645054286636	0.0019318512418286934
0.4544006240422936	0.001958312765052343
0.4548552519423825	0.001983998814231711
0.4553103346977615	0.0020098686696776637
0.4557658727635125	0.002034419188295346
0.4562218665951746	0.0020614269631126364
0.4566783166487416	0.0020879668307424446
0.45713522338066287	0.002079246660378126
0.45759258724784574	0.002141572588617707
0.4580504087076553	0.002169254697158244
0.4585086882179117	0.002196819016738299
0.4589674262368935	0.00222503386446874
0.4594266232233395	0.0022529577990775627
0.4598862796364471	0.002281836935438424
0.46034639593587284	0.0023109262569723983
0.4608069725817323	0.0023401055680675018
0.4612680100346033	0.0023697013810540183
0.46172950875552343	0.002399689434400203
0.46219146920598997	0.002429864319753473
0.46265389184796385	0.002460155935314892
0.46311677714386845	0.002491050390708768
0.46358012555658895	0.0025222869143861877
0.4640439375494734	0.0025538939901605055
0.4645082135863336	0.002585884606058317
0.4649729541314457	0.0025748380775460714
0.46543815964955115	0.0026250332100938526
0.4659038306058555	0.0026619793972344043
0.4663699674660288	0.0026994514550416683
0.46683657069620843	0.0027360271627826405
0.46730364076299763	0.002744411259110168
0.4677711781334667	0.0027897372295955904
0.4682391832751533	0.00283072946059287
0.46870765665606223	0.002869903876238328
0.4691765987446669	0.0029086441135895667
0.46964601000990913	0.0029310758953115493
0.47011589092119993	0.0029772300658689487
0.4705862419484201	0.003017084292785502
0.4710570635619215	0.0030569930228689724
0.47152835623252637	0.003092943969009379
0.47200012043152634	0.0031336305122070546
0.47247235663068665	0.003173343886147496
0.4729450653022427	0.0032151841851192756
0.4734182469189028	0.0032550638540363875
0.4738919019538495	0.003294026673896411
0.4743660308807381	0.003336608303135571
0.4748406341736976	0.0033785538199537137
0.4753157123073305	0.0034199714588475324
0.47579126575671526	0.003461736179195943
0.47626729499740517	0.0035034182900816266
0.47674380050542986	0.0035465319679885902
0.47722078275729535	0.0035897243006142794
0.47769824222998314	0.0036338067200504982
0.47817617940095264	0.0036779770800137745
0.47865459474814054	0.0037226485482057263
0.47913348874996325	0.0037676799166386477
0.4796128618853155	0.003813114929191688
0.4800927146335692	0.003859140236602282
0.480573047474578	0.0039045144660898646
0.4810538608886736	0.003951339867344262
0.4815351553566694	0.003998776422034753
0.48201693135986157	0.00404657234181636
0.48249918938002545	0.004095014383032877
0.48298192989941835	0.0041438144166356
0.48346515340078067	0.004193112234419289
0.4839488603673369	0.004242914603734336
