# Wavelenth(micron)	F_planet(10^-6 erg/cm^2/s/Hz)
0.30005903563735375	4.0102578754873295e-06
0.3003592447525199	4.16147972077057e-06
0.3006597542269558	4.325397830640949e-06
0.300960564361171	4.477167753632871e-06
0.30126167545597554	4.631524548908237e-06
0.3015630878124805	4.7294923865203394e-06
0.30186480173209856	4.814447289997415e-06
0.30216681751654345	4.938185290941674e-06
0.30246913546783105	4.861932608217147e-06
0.3027717558882791	4.903421396738331e-06
0.3030746790805082	5.114299596080008e-06
0.30337790534744163	5.289726889038643e-06
0.30368143499230554	5.417576025431742e-06
0.3039852683186298	5.5939213937161426e-06
0.3042894056302477	5.698898965170056e-06
0.30459384723129695	5.791724755696683e-06
0.3048985934262188	5.924014018409363e-06
0.30520364451975973	6.059096018674808e-06
0.3055090008169708	5.994888383497349e-06
0.3058146626232074	6.197756626499756e-06
0.30612063024413205	6.387034120431256e-06
0.30642690398571265	6.561172795721096e-06
0.30673348415422236	6.7296717790231955e-06
0.30704037105624177	6.8626707391516945e-06
0.3073475649986577	6.896335109452508e-06
0.30765506628866374	7.086362474758996e-06
0.3079628752337625	7.2845167944994894e-06
0.3082709921417617	7.3330888197468335e-06
0.30857941732077815	7.5222919723195255e-06
0.30888815107923795	7.706288451844123e-06
0.30919719372587473	7.856610878082262e-06
0.30950654556973123	7.954708422997224e-06
0.30981620692015943	8.193275417511545e-06
0.31012617808682075	8.251080505995094e-06
0.31043645937968534	8.478029799606026e-06
0.3107470511090351	8.694696787006105e-06
0.3110579535854616	8.910270241603151e-06
0.3113691671198673	9.062307942261133e-06
0.31168069202346704	9.282712732652006e-06
0.31199252860778476	9.487325853417529e-06
0.31230467718465704	9.694220866205129e-06
0.31261713806623304	9.901298516939397e-06
0.3129299115649728	9.941008753531798e-06
0.3132429979936502	1.0137028825551314e-05
0.31355639766535176	1.0383715459044565e-05
0.3138701108934763	1.0635087567665166e-05
0.31418413799173767	1.0870505859755283e-05
0.31449847927416325	1.1096299087521576e-05
0.3148131350550942	1.1331499638741935e-05
0.31512810564918703	1.1558403766104347e-05
0.3154433913714119	1.1785822220089162e-05
0.31575899253705464	1.1973477201460036e-05
0.3160749094617161	1.2094878553934326e-05
0.3163911424613123	1.2381331966795936e-05
0.3167076918520775	1.2660065478640856e-05
0.3170245579505614	1.2954065465456539e-05
0.3173417410736292	1.3217018901050424e-05
0.3176592415384646	1.3478640570711451e-05
0.3179770596625682	1.3737581947573468e-05
0.31829519576375775	1.3983623491426353e-05
0.31861365016017007	1.4270107375514742e-05
0.3189324231702587	1.4454368988207999e-05
0.31925151511279676	1.4737081146326474e-05
0.3195709263068769	1.5048541237847933e-05
0.31989065707190945	1.536332655693289e-05
0.32021070772762594	1.568079055604733e-05
0.32053107859407703	1.5986768184913428e-05
0.3208517699916327	1.6284047851239357e-05
0.32117278224098533	1.6551637713961507e-05
0.32149411566314745	1.6881878267852602e-05
0.32181577057945177	1.7210410684893302e-05
0.32213774731155354	1.748829400613609e-05
0.32246004618142987	1.7844787327754344e-05
0.32278266751137896	1.8191689629495503e-05
0.323105611624022	1.856421225149687e-05
0.32342887884230354	1.892090397925502e-05
0.32375246948949077	1.9275504514083608e-05
0.32407638388917476	1.9558953665142876e-05
0.3244006223652699	1.995366075344832e-05
0.3247251852420147	2.0346835694700654e-05
0.3250500728439716	2.0724336357465762e-05
0.32537528549602773	2.1105737950935475e-05
0.32570082352339647	2.151347059302658e-05
0.32602668725161615	2.192503373647177e-05
0.3263528770065502	2.2339130660618488e-05
0.32667939311438926	2.2758129707579653e-05
0.3270062359016485	2.3117505905773277e-05
0.3273334056951695	2.353151158327167e-05
0.32766090282212285	2.3991124575555442e-05
0.32798872761000714	2.444661802748578e-05
0.32831688038664697	2.4904347895992786e-05
0.32864536148019385	2.536251806529376e-05
0.3289741712191297	2.583941017272262e-05
0.32930330993226514	2.6320047939079734e-05
0.32963277794873797	2.679929728490373e-05
0.32996257559801523	2.727390085870764e-05
0.33029270320989507	2.7714000491052236e-05
0.3306231611145066	2.824310292884391e-05
0.3309539496423071	2.8767582672499887e-05
0.3312850691240847	2.9307363940836044e-05
0.33161651989095925	2.984619389497647e-05
0.3319483022743805	3.039114779475856e-05
0.3322804166061314	3.094846475350287e-05
0.3326128632183269	3.149552599313605e-05
0.3329456424434135	3.201264718526687e-05
0.3332787546141702	3.24909129867532e-05
0.33361220006370884	3.302656338538096e-05
0.333945979125476	3.380043238885285e-05
0.3342800921332507	3.4417567687546744e-05
0.3346145394211455	3.503324134377644e-05
0.33494932132360705	3.566822249774186e-05
0.33528443817541764	3.630435792427249e-05
0.3356198903116948	3.695531755243247e-05
0.33595567806788895	3.7610309412513955e-05
0.33629180177978923	3.8253769397128095e-05
0.33662826178351984	3.8931909356364125e-05
0.3369650584155399	3.9633557464397674e-05
0.33730219201264616	4.0345516170682945e-05
0.337639662911973	4.106788179045286e-05
0.33797747145099094	4.180147821071574e-05
0.3383156179675081	4.25419674553113e-05
0.3386541027996724	4.3289897230903986e-05
0.3389929262859681	4.4029037391005285e-05
0.3393320887652174	4.481477870905358e-05
0.33967159057658325	4.560652071689461e-05
0.3400114320595682	4.6389491978315386e-05
0.34035161355401444	4.7213691958551205e-05
0.34069213540010307	4.804586607734631e-05
0.34103299793835534	4.889112756884705e-05
0.34137420150963343	4.974979203932409e-05
0.3417157464551409	5.061803848577886e-05
0.3420576331164234	5.14744660838668e-05
0.3423998618353671	5.236753927660591e-05
0.3427424329542007	5.328789769665132e-05
0.34308534681549624	5.421541371461726e-05
0.3434286037621676	5.515274414214332e-05
0.3437722041374721	5.611148616647491e-05
0.34411614828500847	5.7088075058854504e-05
0.3444604365487217	5.807417907259543e-05
0.34480506927290067	5.9079520333091055e-05
0.34515004680217665	6.0086207487853186e-05
0.3454953694815278	6.109914080835282e-05
0.34584103765627777	6.215946767559614e-05
0.34618705167209435	6.323044709157046e-05
0.3465334118749911	6.43198747553991e-05
0.3468801186113284	6.54195330119913e-05
0.34722717222781396	6.654472875529903e-05
0.3475745730715008	6.767763244105068e-05
0.34792232148978935	6.883690263283432e-05
0.3482704178304284	7.000800311904926e-05
0.3486188624415139	7.118407983293929e-05
0.3489676556714908	7.238042242184773e-05
0.3493167978691525	7.362390640291665e-05
0.34966628938364114	7.487700663991206e-05
0.35001613056444836	7.614860206610477e-05
0.3503663217614157	7.743750155622358e-05
0.3507168633247337	7.874861023390757e-05
0.3510677556049435	8.007800193984228e-05
0.35141899895293816	8.14221926095892e-05
0.35177059371996156	8.27918887555973e-05
0.35212254025760836	8.417038665064474e-05
0.35247483891782416	8.558682649017593e-05
0.35282749005290864	8.702406466478238e-05
0.3531804940155126	8.84859873066514e-05
0.35353385115863967	8.996951844156596e-05
0.35388756183564807	9.14745467532922e-05
0.3542416264002475	9.300130670052863e-05
0.35459604520650223	9.454743456400249e-05
0.35495081860883215	9.61172453054202e-05
0.3553059469620101	9.771817671499384e-05
0.35566143062116456	9.932968183250987e-05
0.3560172699417795	0.00010098354484885531
0.356373465279694	0.00010265772604370811
0.35673001699110324	0.00010435987646220152
0.3570869254325594	0.00010608530968382254
0.3574441909609705	0.00010783806996186881
0.35780181393360216	0.00010961637813681486
0.3581597947080773	0.00011141127630031296
0.3585181336423769	0.00011324435709093847
0.35887683109484053	0.00011510713601579725
0.3592358874241651	0.0001169920546044349
0.3595953029894069	0.00011891130628816612
0.3599550781499817	0.00012085965098978109
0.36031521326566457	0.0001228374701919596
0.3606757086965913	0.00012484322766782895
0.361036564803257	0.00012687981833933604
0.36139778194651695	0.00012894205663799104
0.36175936048758894	0.00013103397196861976
0.36212130078805094	0.0001331653077934332
0.3624836032098437	0.00013528237643006978
0.36284626811526954	0.00013752095506766552
0.36320929586699424	0.00013960289300759914
0.36357268682804506	0.00014201100760851556
0.3639364413618126	0.00014430565180521596
0.36430055983205223	0.00014663403224136011
0.364665042602882	0.0001487932892946667
0.36502989003878483	0.00015138549635963176
0.3653951025046079	0.00015381956228107733
0.36576068036556375	0.00015628927888593637
0.3661266239872305	0.00015879799513745296
0.3664929337355513	0.0001613407782770375
0.36685960997683714	0.0001639225895386319
0.3672266530777639	0.0001665430708200351
0.367594063405374	0.00016919980925752853
0.36796184132707804	0.00017189653990760026
0.36832998721065424	0.00017463223357417642
0.36869850142424837	0.00017740220778432038
0.36906738433637487	0.00018021973399520093
0.3694366363159162	0.00018308086189546346
0.3698062577321236	0.00018598250866278226
0.37017624895461987	0.00018892608227248837
0.370546610353396	0.00019191241728605098
0.3709173422988131	0.0001949423668481294
0.3712884451616033	0.0001980161821139097
0.3716599193128703	0.00020113193480423867
0.3720317651240883	0.0002042949406852171
0.3724039829671021	0.00020749947267275045
0.37277657321412927	0.00021075663502111746
0.37314953623776065	0.0002140606873119721
0.3735228724109598	0.00021741194833116114
0.37389658210706284	0.0002208117802145149
0.3742706656997787	0.00022426060136497027
0.3746451235631912	0.00022775784681013808
0.37501995607175836	0.0002313026449514012
0.3753951636003123	0.0002348999126981715
0.37577074652406117	0.00023855172432827077
0.376146705218588	0.00024225128810751785
0.37652304005985093	0.00024600758537275343
0.3768997514241862	0.0002498169844584209
0.37727683968830467	0.00025368117673009357
0.3776543052292933	0.000257599856159766
0.37803214842461885	0.00026157407212886857
0.37841036965212516	0.00026560476569360337
0.3787889692900325	0.0002696899619599077
0.3791679477169404	0.0002738336358842126
0.379547305311827	0.00027803846881996336
0.3799270424540503	0.0002823008358594032
0.380307159523348	0.0002866250329898638
0.3806876568998369	0.00029100975227743425
0.3810685349640144	0.0002954562578724051
0.3814497940967586	0.000299965287986643
0.38183143467932895	0.0003045371393938935
0.3822134570933656	0.00030917323731975666
0.38259586172089083	0.00031386995277431917
0.38297864894430983	0.00031598621289553224
0.3833618191464097	0.0003209747763103358
0.3837453727103603	0.00032752564378182625
0.3841293100197161	0.0003313192286295251
0.384513631458414	0.0003383767279609262
0.38489833741077456	0.00034348439109469674
0.3852834282615044	0.00034866364465674404
0.38566890439569507	0.0003539129677997012
0.3860547661988226	0.0003592363254824888
0.3864410140567483	0.0003646289553559802
0.38682764835572003	0.00037009989505763644
0.38721466948237254	0.0003756404739554051
0.38760207782372696	0.0003812638251125116
0.38798987376719146	0.0003869665148795095
0.38837805770056205	0.00039274590655909543
0.38876663001202283	0.0003986023624245173
0.38915559109014614	0.0004045384208325838
0.38954494132389356	0.0004105569389637118
0.3899346811026145	0.0004166557119343127
0.3903248108160484	0.00042283430373383265
0.3907153308543251	0.00042910261761815047
0.39110624160796537	0.0004354542752109129
0.3914975434678802	0.0004418914525382727
0.3918892368253715	0.00044841375977432157
0.39228132207213195	0.00045501961381822436
0.3926737996002461	0.0004616985223556054
0.39306666980219274	0.0004683302129633559
0.39345993307084226	0.00046328328648856116
0.39385358979945745	0.0004821298372682173
0.3942476403816957	0.0004894165174947283
0.3946420852116072	0.0004937342569453277
0.39503692468363627	0.0005038492579639648
0.3954321591926224	0.0005112471565331882
0.3958277891338011	0.0005186052066591889
0.3962238149028023	0.0005240097653776456
0.3966202368956511	0.0005337356840607245
0.3970170555087703	0.0005340323827220853
0.3974142711389785	0.0005492967251054168
0.39781188418349056	0.0005575078814730525
0.3982098950399201	0.0005655966548388763
0.3986083041062777	0.0005737811744656639
0.39900711178097215	0.0005820743556827325
0.3994063184628117	0.0005904751114355543
0.39980592455100306	0.0005989890688287978
0.40020593044515235	0.0006076092332739502
0.4006063365452655	0.0006163435613722864
0.4010071432517482	0.000625193992670419
0.4014083509654077	0.0006341572706313897
0.4018099600874517	0.0006432428924600532
0.4022119710194891	0.0006524455542186137
0.40261438416353124	0.0006617709608117048
0.40301719992199064	0.000671217903524464
0.40342041869768314	0.0006807884266897586
0.40382404089382873	0.0006904616854548686
0.40422806691404894	0.0007002831444508956
0.40463249716236893	0.0007102317219595575
0.40503733204321946	0.0007203114174653729
0.4054425719614362	0.0007305163839078273
0.40584821732225845	0.0007408339378356435
0.406254268531332	0.0007513075037012676
0.40666072599470804	0.0007619170359557419
0.40706759011884386	0.000772665914035042
0.40747486131060406	0.000783550688575006
0.4078825399772598	0.0007945528342738009
0.4082906265264887	0.0008057038349298587
0.40869912136637737	0.0008170159544345321
0.40910802490542203	0.0008284724208498672
0.4095173375525259	0.000840043434810668
0.40992705971700066	0.0008517762170377235
0.41033719180856965	0.0008636880422141827
0.41074773423736516	0.0008757415005494123
0.41115868741392897	0.0008879405870511718
0.4115700517492145	0.0009003026226606054
0.41198182765458635	0.0009127843024702195
0.41239401554182037	0.0009254558752870465
0.41280661582310413	0.0009382892051203313
0.4132196289110381	0.0009512799616394834
0.41363305521863547	0.0009644151667748162
0.41404689515932186	0.0009777385550791956
0.41446114914693805	0.0009912306105216836
0.4148758175957384	0.0010048934758987358
0.41529090092039056	0.0010186478384425638
0.4157063995359777	0.0010326205778704277
0.41612231385799897	0.0010468126161014188
0.4165386443023692	0.001061171733717847
0.41695539128541836	0.0010756808811944467
0.4173725552238928	0.001090404138657536
0.41779013653495684	0.0011050790921093567
0.41820813563619214	0.0011202057235656685
0.41862655294559853	0.0011354847126538797
0.4190453888815931	0.0011509681226319307
0.4194646438630111	0.0011666314074879162
0.419884318309108	0.0011822331904929968
0.4203044126395589	0.0011982295089409498
0.4207249272744568	0.0012144579615267668
0.4211458626343166	0.0012307683778891843
0.421567219140075	0.0012471830673399587
0.42198899721308825	0.001262983319244405
0.42241119727513277	0.001273033732465852
0.4228338197484091	0.001151170958043342
0.42325686505554083	0.0013111536390371656
0.423680333619573	0.0013328085257195749
0.42410422586397456	0.0013511155449530369
0.4245285422126373	0.0013695616906234216
0.4249532830898771	0.0013880447230940963
0.4253784489204354	0.0014066729793385366
0.42580404012947815	0.0014254069175183217
0.42623005714259626	0.0014444182739552747
0.4266565003858075	0.0014637347153046544
0.4270833702855548	0.001483211418409049
0.4275106672687079	0.0015028994441285987
0.42793839176256293	0.0015227870125689904
0.4283665441948454	0.001541071298158917
0.42879512499370814	0.0015635199090880962
0.4292241345877311	0.0015823272050921784
0.4296535734059238	0.0016050272134824953
0.4300834418777262	0.0016247614631678955
0.4305137404330073	0.0016422227614989943
0.4309444695020643	0.001666087612876619
0.4313756295156262	0.0016902828347059836
0.43180722090485346	0.0017105063848940679
0.4322392441013378	0.001735148536657023
0.43267169953710305	0.0017572633009143657
0.4331045876446034	0.0017788388816172094
0.43353790885672777	0.0018027546471084315
0.43397166360679784	0.001826605126636199
0.4344058523285671	0.0018506946900621985
0.4348404754562242	0.001875041181575101
0.4352755334243927	0.0018965276148319244
0.4357110266681317	0.001922459965126521
0.4361469556229332	0.0019479391510489575
0.4365833207247264	0.00197349653682288
0.4370201224098773	0.0019986565630363416
0.43745736111518657	0.0020234370975691185
0.43789503727789286	0.0020503904664093014
0.4383331513356728	0.0020771795281990333
0.4387717037266415	0.0021042256576603267
0.43921069488935105	0.002130226155591174
0.4396501252627919	0.0021579298087016923
0.4400899952863943	0.002186030128715371
0.4405303054000284	0.0022143416406583847
0.44097105604400455	0.0022423993357753047
0.44141224765907355	0.00227089818607507
0.4418538806864275	0.002300302784880605
0.44229595556769846	0.0023296181240341778
0.44273847274496153	0.0023568769131961276
0.44318143266073473	0.0023891547204654686
0.4436248357579766	0.002412954142197738
0.4440686824800909	0.0024506569326706437
0.4445129732709252	0.002481514478943645
0.44495770857476963	0.002513143001921567
0.44540288883635953	0.002538648795123773
0.44584851450087576	0.0025749540281376493
0.44629458601394356	0.0026093095598835247
0.4467411038216344	0.002638119375921158
0.44718806837046604	0.002660825153534316
0.4476354801074035	0.0026987654008473107
0.4480833394798593	0.0027348013137993045
0.4485316469356919	0.0027701514167674376
0.44898040292320845	0.0028064293488781486
0.44942960789116476	0.0028233592831802897
0.4498792622887662	0.002866306802430134
0.4503293665656675	0.0029044039337980223
0.4507799211719727	0.0029431878244105016
0.45123092655823627	0.002981739065760276
0.45168238317546366	0.003005851232829838
0.45213429147511197	0.003049005578266129
0.45258665190909014	0.003090276649479307
0.45303946492975733	0.0031314889439323606
0.4534927309899271	0.0031687574497527675
0.45394645054286636	0.0032029179411344416
0.4544006240422936	0.0032479500006440598
0.4548552519423825	0.0032897806236293586
0.4553103346977615	0.0033318642233599234
0.4557658727635125	0.003368760440762492
0.4562218665951746	0.003413609555959691
0.4566783166487416	0.0034563011816598397
0.45713522338066287	0.0034883427225912015
0.45759258724784574	0.003541652849255087
0.4580504087076553	0.0035864709497049375
0.4585086882179117	0.0036299675852057914
0.4589674262368935	0.003675587049894931
0.4594266232233395	0.003719355052226823
0.4598862796364471	0.003766076290816808
0.46034639593587284	0.003812832728015052
0.4608069725817323	0.0038591869686894066
0.4612680100346033	0.003906384256372797
0.46172950875552343	0.003954320553038525
0.46219146920598997	0.004002156385209028
0.46265389184796385	0.004049320315979813
0.46311677714386845	0.004098346713711746
0.46358012555658895	0.004147887566715557
0.4640439375494734	0.004198072800506484
0.4645082135863336	0.004248924310092976
0.4649729541314457	0.004179981502006036
0.46543815964955115	0.004277871018511007
0.4659038306058555	0.004340525928025522
0.4663699674660288	0.004404756301341749
0.46683657069620843	0.004465567377658881
0.46730364076299763	0.004444844522880304
0.4677711781334667	0.00452807569747964
0.4682391832751533	0.004600736866556694
0.46870765665606223	0.004667605858048323
0.4691765987446669	0.004733183255969326
0.46964601000990913	0.004746967224661752
0.47011589092119993	0.004833414978160403
0.4705862419484201	0.004900290478396259
0.4710570635619215	0.00496676270314641
0.47152835623252637	0.005019884635096494
0.47200012043152634	0.005087347619973109
0.47247235663068665	0.005151520509455163
0.4729450653022427	0.005221906797605101
0.4734182469189028	0.005285131632387636
0.4738919019538495	0.005344218403788623
0.4743660308807381	0.005415163013054372
0.4748406341736976	0.005483087625255094
0.4753157123073305	0.0055483840072718645
0.47579126575671526	0.005613873373561712
0.47626729499740517	0.005676809818740452
0.47674380050542986	0.005745458813461393
0.47722078275729535	0.00581364170598995
0.47769824222998314	0.005884056312079017
0.47817617940095264	0.005953723337988528
0.47865459474814054	0.006024261331410829
0.47913348874996325	0.00609501830653851
0.4796128618853155	0.006166238941949542
0.4800927146335692	0.006238636897248496
0.480573047474578	0.006306318929725493
0.4810538608886736	0.006379445595199442
0.4815351553566694	0.00645389553348346
0.48201693135986157	0.00652837333286308
0.48249918938002545	0.006604319447401558
0.48298192989941835	0.0066803031332128195
0.48346515340078067	0.006756978278944233
0.4839488603673369	0.006834352389843552
0.4844330512827943	0.006504379616172323
0.4849177266313433	0.006696970256215652
