# Wavelenth(micron)	F_planet(10^-6 erg/cm^2/s/Hz)
0.30005903563735375	1.954662042778501e-06
0.3003592447525199	2.0198263111975077e-06
0.3006597542269558	2.089315006223001e-06
0.300960564361171	2.1529340634223164e-06
0.30126167545597554	2.2162623598337818e-06
0.3015630878124805	2.266996789696879e-06
0.30186480173209856	2.313140204272452e-06
0.30216681751654345	2.366256253671596e-06
0.30246913546783105	2.365754049350204e-06
0.3027717558882791	2.395047639579783e-06
0.3030746790805082	2.478664942641711e-06
0.30337790534744163	2.5534760493988776e-06
0.30368143499230554	2.6147642152793585e-06
0.3039852683186298	2.689568692864268e-06
0.3042894056302477	2.7438650515208516e-06
0.30459384723129695	2.7945794766155117e-06
0.3048985934262188	2.8587006785900973e-06
0.30520364451975973	2.923496523297641e-06
0.3055090008169708	2.9322980584826265e-06
0.3058146626232074	3.0156370112213226e-06
0.30612063024413205	3.0967369226239594e-06
0.30642690398571265	3.1741593503974695e-06
0.30673348415422236	3.2505396008975683e-06
0.30704037105624177	3.317399793646527e-06
0.3073475649986577	3.3565334055368917e-06
0.30765506628866374	3.440879068031758e-06
0.3079628752337625	3.5273364846290273e-06
0.3082709921417617	3.558510065059381e-06
0.30857941732077815	3.6610534796548173e-06
0.30888815107923795	3.746228830343519e-06
0.30919719372587473	3.8183318457355775e-06
0.30950654556973123	3.8441076617658575e-06
0.30981620692015943	3.968253979465774e-06
0.31012617808682075	4.0373228546554345e-06
0.31043645937968534	4.136717557816912e-06
0.3107470511090351	4.234619198613113e-06
0.3110579535854616	4.333847666094887e-06
0.3113691671198673	4.417118962219987e-06
0.31168069202346704	4.518034966056782e-06
0.31199252860778476	4.615269792900696e-06
0.31230467718465704	4.714265344579949e-06
0.31261713806623304	4.813706135779641e-06
0.3129299115649728	4.869716777155779e-06
0.3132429979936502	4.967788837391986e-06
0.31355639766535176	5.081330561477268e-06
0.3138701108934763	5.195951530530836e-06
0.31418413799173767	5.309080525213286e-06
0.31449847927416325	5.419427905567116e-06
0.3148131350550942	5.5333418535955295e-06
0.31512810564918703	5.6463485137658674e-06
0.3154433913714119	5.759573326291519e-06
0.31575899253705464	5.864365556823834e-06
0.3160749094617161	5.953080690025711e-06
0.3163911424613123	6.085258477223981e-06
0.3167076918520775	6.216621441183108e-06
0.3170245579505614	6.352941989020378e-06
0.3173417410736292	6.482830348319606e-06
0.3176592415384646	6.613608955340883e-06
0.3179770596625682	6.744288541623067e-06
0.31829519576375775	6.873299408442475e-06
0.31861365016017007	7.014043040055483e-06
0.3189324231702587	7.130697230162605e-06
0.31925151511279676	7.273165130047601e-06
0.3195709263068769	7.424024556298548e-06
0.31989065707190945	7.577098762464874e-06
0.32021070772762594	7.732167753745672e-06
0.32053107859407703	7.885712179068685e-06
0.3208517699916327	8.03846580618276e-06
0.32117278224098533	8.185303395860346e-06
0.32149411566314745	8.350314220537317e-06
0.32181577057945177	8.515051573153785e-06
0.32213774731155354	8.670371647595113e-06
0.32246004618142987	8.84568615921456e-06
0.32278266751137896	9.0216742703001e-06
0.323105611624022	9.202756270873148e-06
0.32342887884230354	9.383079461061517e-06
0.32375246948949077	9.5647496572642e-06
0.32407638388917476	9.730370022462574e-06
0.3244006223652699	9.925428321010098e-06
0.3247251852420147	1.0122125674830515e-05
0.3250500728439716	1.0317110801642717e-05
0.32537528549602773	1.0515055539390034e-05
0.32570082352339647	1.0720656408642438e-05
0.32602668725161615	1.0929338011113502e-05
0.3263528770065502	1.114057316939223e-05
0.32667939311438926	1.135498752757108e-05
0.3270062359016485	1.1557152245647629e-05
0.3273334056951695	1.1774801186392863e-05
0.32766090282212285	1.2005765967078084e-05
0.32798872761000714	1.2237720062148692e-05
0.32831688038664697	1.2472666793156438e-05
0.32864536148019385	1.2710216156356752e-05
0.3289741712191297	1.2953926154824403e-05
0.32930330993226514	1.320109960571916e-05
0.32963277794873797	1.3450149516471178e-05
0.32996257559801523	1.3700930322454625e-05
0.33029270320989507	1.3946148876128949e-05
0.3306231611145066	1.4214943020511504e-05
0.3309539496423071	1.4485222140117545e-05
0.3312850691240847	1.4761813755471212e-05
0.33161651989095925	1.5040796613604874e-05
0.3319483022743805	1.5324009068898323e-05
0.3322804166061314	1.5612814823691974e-05
0.3326128632183269	1.590192275538759e-05
0.3329456424434135	1.6185721469988852e-05
0.3332787546141702	1.645840894808131e-05
0.33361220006370884	1.6746780471555143e-05
0.333945979125476	1.711655299670194e-05
0.3342800921332507	1.743728890353879e-05
0.3346145394211455	1.7761977225569208e-05
0.33494932132360705	1.809351572799781e-05
0.33528443817541764	1.84288412888931e-05
0.3356198903116948	1.8768436792266565e-05
0.33595567806788895	1.9114298960374343e-05
0.33629180177978923	1.9465325828461923e-05
0.33662826178351984	1.9819941018277208e-05
0.3369650584155399	2.018733719494787e-05
0.33730219201264616	2.056056446792377e-05
0.337639662911973	2.0940062210674623e-05
0.33797747145099094	2.1325764080713888e-05
0.3383156179675081	2.171698811434362e-05
0.3386541027996724	2.2113658587887723e-05
0.3389929262859681	2.2512266046383333e-05
0.3393320887652174	2.2925805765146424e-05
0.33967159057658325	2.3344821068897726e-05
0.3400114320595682	2.3766303306529593e-05
0.34035161355401444	2.420100453811361e-05
0.34069213540010307	2.464188691916441e-05
0.34103299793835534	2.5090165292076327e-05
0.34137420150963343	2.5545853973727325e-05
0.3417157464551409	2.6008385102363317e-05
0.3420576331164234	2.647264017067794e-05
0.3423998618353671	2.6950134213671238e-05
0.3427424329542007	2.743853919885142e-05
0.34308534681549624	2.793347700987029e-05
0.3434286037621676	2.8435640163611036e-05
0.3437722041374721	2.8947496929872027e-05
0.34411614828500847	2.9457538342536733e-05
0.3444604365487217	2.999586948042217e-05
0.34480506927290067	3.053457140697291e-05
0.34515004680217665	3.107809188368093e-05
0.3454953694815278	3.16285723810946e-05
0.34584103765627777	3.219519997278821e-05
0.34618705167209435	3.276981760548236e-05
0.3465334118749911	3.3353026749850765e-05
0.3468801186113284	3.394710177325081e-05
0.34722717222781396	3.4551054469246925e-05
0.3475745730715008	3.5161457178905326e-05
0.34792232148978935	3.5786203164178405e-05
0.3482704178304284	3.64194089929039e-05
0.3486188624415139	3.7059677996053043e-05
0.3489676556714908	3.77118347219377e-05
0.3493167978691525	3.837628803385033e-05
0.34966628938364114	3.905566572816963e-05
0.35001613056444836	3.9742600938306705e-05
0.3503663217614157	4.044158274499959e-05
0.3507168633247337	4.115169587402786e-05
0.3510677556049435	4.187294788522595e-05
0.35141899895293816	4.2604467601077895e-05
0.35177059371996156	4.334911011026408e-05
0.35212254025760836	4.410316823208078e-05
0.35247483891782416	4.487302758789012e-05
0.35282749005290864	4.5654609041813124e-05
0.3531804940155126	4.645029796614288e-05
0.35353385115863967	4.725813706019795e-05
0.35388756183564807	4.807869746154577e-05
0.3542416264002475	4.8912172669723357e-05
0.35459604520650223	4.9758102051766946e-05
0.35495081860883215	5.061764751036301e-05
0.3553059469620101	5.149254357625186e-05
0.35566143062116456	5.237859965955822e-05
0.3560172699417795	5.328246036350977e-05
0.356373465279694	5.4199814649310474e-05
0.35673001699110324	5.513211932346331e-05
0.3570869254325594	5.6078657010479395e-05
0.3574441909609705	5.704104787182474e-05
0.35780181393360216	5.801815330386811e-05
0.3581597947080773	5.9007520264238516e-05
0.3585181336423769	6.001693887780826e-05
0.35887683109484053	6.104186373531384e-05
0.3592358874241651	6.208179605101335e-05
0.3595953029894069	6.313929644740328e-05
0.3599550781499817	6.421346405940449e-05
0.36031521326566457	6.530461618429919e-05
0.3606757086965913	6.641256381712493e-05
0.361036564803257	6.753800420033546e-05
0.36139778194651695	6.868019887683565e-05
0.36175936048758894	6.983996794864457e-05
0.36212130078805094	7.101949815881749e-05
0.3624836032098437	7.221337820011974e-05
0.36284626811526954	7.343422875056267e-05
0.36320929586699424	7.465482084937516e-05
0.36357268682804506	7.592500189572707e-05
0.3639364413618126	7.719966908122263e-05
0.36430055983205223	7.849380900940478e-05
0.364665042602882	7.97863399902169e-05
0.36502989003878483	8.114044310792362e-05
0.3653951025046079	8.24964556565793e-05
0.36576068036556375	8.387308888910715e-05
0.3661266239872305	8.52713321815071e-05
0.3664929337355513	8.669055675412888e-05
0.36685960997683714	8.813194071198887e-05
0.3672266530777639	8.959563477726971e-05
0.367594063405374	9.108148642178831e-05
0.36796184132707804	9.258735548241161e-05
0.36832998721065424	9.412160370089894e-05
0.36869850142424837	9.56757795980562e-05
0.36906738433637487	9.725512830383976e-05
0.3694366363159162	9.885899423806291e-05
0.3698062577321236	0.00010048706677792137
0.37017624895461987	0.00010213987088253833
0.370546610353396	0.00010381355791186236
0.3709173422988131	0.0001055208054992719
0.3712884451616033	0.00010725055338058817
0.3716599193128703	0.00010900545634271613
0.3720317651240883	0.00011074168589890114
0.3724039829671021	0.00011259134939904296
0.37277657321412927	0.00011443205389645614
0.37314953623776065	0.0001162964447722966
0.3735228724109598	0.0001181835613108576
0.37389658210706284	0.00012008232668814907
0.3742706656997787	0.00012205914848816388
0.3746451235631912	0.00012401841532968944
0.37501995607175836	0.00012603732198170197
0.3753951636003123	0.00012808413069909197
0.37577074652406117	0.00013015300736527485
0.376146705218588	0.00013225283452312597
0.37652304005985093	0.0001343840264942028
0.3768997514241862	0.0001365472087720434
0.37727683968830467	0.0001387426727974503
0.3776543052292933	0.00014097054567389005
0.37803214842461885	0.00014323142847077238
0.37841036965212516	0.00014552582351703928
0.3787889692900325	0.0001478535701903217
0.3791679477169404	0.0001502159564604554
0.379547305311827	0.0001526136493516277
0.3799270424540503	0.0001550462695943213
0.380307159523348	0.00015751529576619745
0.3806876568998369	0.0001600203792367798
0.3810685349640144	0.00016256226259633557
0.3814497940967586	0.00016514137643941398
0.38183143467932895	0.00016775823451362404
0.3822134570933656	0.00017041193847510712
0.38259586172089083	0.00017309615398189415
0.38297864894430983	0.0001742144662587507
0.3833618191464097	0.00017639841840407257
0.3837453727103603	0.00018060993066854934
0.3841293100197161	0.00018243059507280855
0.384513631458414	0.0001871761444923996
0.38489833741077456	0.00019011380201909458
0.3852834282615044	0.00019309405645903668
0.38566890439569507	0.00019610804152685312
0.3860547661988226	0.0001991381554545283
0.3864410140567483	0.00020229453996336888
0.38682764835572003	0.00020545041089176054
0.38721466948237254	0.00020865122313667536
0.38760207782372696	0.00021189863976184503
0.38798987376719146	0.00021518581020209038
0.38837805770056205	0.0002185337304631438
0.38876663001202283	0.00022190561292200937
0.38915559109014614	0.0002253594469486529
0.38954494132389356	0.00022884249992815894
0.3899346811026145	0.00023237612326319163
0.3903248108160484	0.0002359664040365911
0.3907153308543251	0.00023960278186078255
0.39110624160796537	0.00024329222347888567
0.3914975434678802	0.00024703298531555517
0.3918892368253715	0.0002508264202027079
0.39228132207213195	0.00025466402421688326
0.3926737996002461	0.00025857176290792024
0.39306666980219274	0.00026249675766151635
0.39345993307084226	0.0002590251928609018
0.39385358979945745	0.0002705832215365251
0.3942476403816957	0.0002747340926750186
0.3946420852116072	0.00027694631898944784
0.39503692468363627	0.0002831609686452867
0.3954321591926224	0.00028746657112455667
0.3958277891338011	0.0002918180247155204
0.3962238149028023	0.00029373112747828464
0.3966202368956511	0.00030071337486102783
0.3970170555087703	0.0002985843711013316
0.3974142711389785	0.0003098643420124312
0.39781188418349056	0.0003145639533032571
0.3982098950399201	0.00031930389223358443
0.3986083041062777	0.0003241082915606074
0.39900711178097215	0.00032897881605264344
0.3994063184628117	0.0003339167762410465
0.39980592455100306	0.00033892270089202044
0.40020593044515235	0.00034399710877869847
0.4006063365452655	0.000349140955873265
0.4010071432517482	0.00035435575904483457
0.4014083509654077	0.0003596410855555881
0.4018099600874517	0.0003649998725020106
0.4022119710194891	0.000370431701215308
0.40261438416353124	0.000375938123248424
0.40301719992199064	0.0003815195845824097
0.40342041869768314	0.00038717711302908083
0.40382404089382873	0.00039290687541385647
0.40422806691404894	0.0003987199395346314
0.40463249716236893	0.0004046109771368986
0.40503733204321946	0.00041058235371561707
0.4054425719614362	0.0004166334906976374
0.40584821732225845	0.0004227622021258348
0.406254268531332	0.0004289779883018838
0.40666072599470804	0.0004352781175434727
0.40706759011884386	0.0004416634508707398
0.40747486131060406	0.0004481340275680936
0.4078825399772598	0.00045468710137932584
0.4082906265264887	0.0004613302054140851
0.40869912136637737	0.0004680652482719966
0.40910802490542203	0.0004748898604502282
0.4095173375525259	0.0004818028054729286
0.40992705971700066	0.0004888063088292152
0.41033719180856965	0.0004959070857395371
0.41074773423736516	0.0005031027095894559
0.41115868741392897	0.0005103931539831507
0.4115700517492145	0.0005177793177333658
0.41198182765458635	0.0005252562573488027
0.41239401554182037	0.0005328388616597681
0.41280661582310413	0.0005405207029641214
0.4132196289110381	0.0005483033180302319
0.41363305521863547	0.0005561837344919625
0.41404689515932186	0.000564173313654488
0.41446114914693805	0.0005722695421667937
0.4148758175957384	0.0005804764520035837
0.41529090092039056	0.0005887698940378924
0.4157063995359777	0.0005971799129642133
0.41612231385799897	0.0006057107731713845
0.4165386443023692	0.0006143574479768925
0.41695539128541836	0.0006231026462446807
0.4173725552238928	0.0006319756913174292
0.41779013653495684	0.000640899679027683
0.41820813563619214	0.0006500077278393115
0.41862655294559853	0.000659219253520216
0.4190453888815931	0.0006685539400964026
0.4194646438630111	0.0006780130725722573
0.419884318309108	0.0006875286933858407
0.4203044126395589	0.0006972188372444865
0.4207249272744568	0.0007070337735808707
0.4211458626343166	0.0007169451813318697
0.421567219140075	0.0007270058544143394
0.42198899721308825	0.0007370072754384683
0.42241119727513277	0.0007462065091850379
0.4228338197484091	0.0006903726859911751
0.42325686505554083	0.0007678201627493653
0.423680333619573	0.0007791868673239218
0.42410422586397456	0.0007900821876826341
0.4245285422126373	0.000801135723903659
0.4249532830898771	0.00081228717497776
0.4253784489204354	0.0008235765356864723
0.42580404012947815	0.0008350405734502091
0.42623005714259626	0.0008466135433838143
0.4266565003858075	0.0008584050702769701
0.4270833702855548	0.0008702797576111787
0.4275106672687079	0.000882331471557352
0.42793839176256293	0.0008944690605164256
0.4283665441948454	0.0009065463157183584
0.42879512499370814	0.0009193472648593609
0.4292241345877311	0.000931735057555049
0.4296535734059238	0.0009447420519235843
0.4300834418777262	0.0009575732882375147
0.4305137404330073	0.0009698467215082046
0.4309444695020643	0.0009834996580998382
0.4313756295156262	0.0009972261698291982
0.43180722090485346	0.0010106008773474468
0.4322392441013378	0.0010246521800706479
0.43267169953710305	0.0010385172628843927
0.4331045876446034	0.0010522755384930651
0.43353790885672777	0.001066706991712356
0.43397166360679784	0.0010812640596830948
0.4344058523285671	0.001095924959794643
0.4348404754562242	0.0011106940982771073
0.4352755334243927	0.0011247684406268028
0.4357110266681317	0.0011400718296288234
0.4361469556229332	0.0011549980611309531
0.4365833207247264	0.0011705091402790134
0.4370201224098773	0.0011865059371842274
0.43745736111518657	0.0012021688209914463
0.43789503727789286	0.0012187886037335074
0.4383331513356728	0.0012350026832407145
0.4387717037266415	0.0012520984071420322
0.43921069488935105	0.0012682917049906543
0.4396501252627919	0.0012857853666984726
0.4400899952863943	0.0013029277877486018
0.4405303054000284	0.0013202004067532174
0.44097105604400455	0.001337903042333858
0.44141224765907355	0.0013555761757466666
0.4418538806864275	0.0013734245314797858
0.44229595556769846	0.0013913622103883846
0.44273847274496153	0.0014096564008658286
0.44318143266073473	0.0014279377020594388
0.4436248357579766	0.0014453609224164546
0.4440686824800909	0.0014645797541380414
0.4445129732709252	0.00148275623381787
0.44495770857476963	0.0015006588674159934
0.44540288883635953	0.001513764016335488
0.44584851450087576	0.001531890621712768
0.44629458601394356	0.0015493197201822582
0.4467411038216344	0.0015616181605362157
0.44718806837046604	0.001571552939501593
0.4476354801074035	0.0015850234905947392
0.4480833394798593	0.0016111512849868574
0.4485316469356919	0.0016375291833169404
0.44898040292320845	0.0016628975861583473
0.44942960789116476	0.0016837172958555865
0.4498792622887662	0.0017114941867389173
0.4503293665656675	0.0017336672869165337
0.4507799211719727	0.001756973193905205
0.45123092655823627	0.0017877605874093586
0.45168238317546366	0.0018063950477695844
0.45213429147511197	0.0018347218144110435
0.45258665190909014	0.0018610323198376966
0.45303946492975733	0.0018829869663132572
0.4534927309899271	0.0019111345615083278
0.45394645054286636	0.0019315235380794004
0.4544006240422936	0.0019554236766037222
0.4548552519423825	0.001979575656219598
0.4553103346977615	0.001998895894045317
0.4557658727635125	0.002017071945610343
0.4562218665951746	0.002038005661704715
0.4566783166487416	0.002051945515925918
0.45713522338066287	0.0020304837784761195
0.45759258724784574	0.0020762559287450604
0.4580504087076553	0.002083104495389834
0.4585086882179117	0.0020898477744616625
0.4589674262368935	0.002081819443119016
0.4594266232233395	0.002075813614905723
0.4598862796364471	0.002099823748620339
0.46034639593587284	0.0021363080862177915
0.4608069725817323	0.002170408074566475
0.4612680100346033	0.002191617890367484
0.46172950875552343	0.002222720784747211
0.46219146920598997	0.0022702577090099995
0.46265389184796385	0.00228653373371291
0.46311677714386845	0.002340611459797012
0.46358012555658895	0.0023814105708881345
0.4640439375494734	0.002370935671346956
0.4645082135863336	0.002442311983769095
0.4649729541314457	0.002424153991424256
0.46543815964955115	0.0024862132775515466
0.4659038306058555	0.0025486407383577166
0.4663699674660288	0.0025551958771160544
0.46683657069620843	0.0026160887156497638
0.46730364076299763	0.002648278887460149
0.4677711781334667	0.002668174197864619
0.4682391832751533	0.002703009250056005
0.46870765665606223	0.002772447909249832
0.4691765987446669	0.002784569045721017
0.46964601000990913	0.002792141480842596
0.47011589092119993	0.0028345328527559235
0.4705862419484201	0.002854443422032212
0.4710570635619215	0.0028730305007904767
0.47152835623252637	0.002879453033790466
0.47200012043152634	0.0029050878318826238
0.47247235663068665	0.002929753962625025
0.4729450653022427	0.002965523218172597
0.4734182469189028	0.002983432589105581
0.4738919019538495	0.0029996666647284275
0.4743660308807381	0.003030017948143359
0.4748406341736976	0.003023878755726932
0.4753157123073305	0.0030157450518664645
0.47579126575671526	0.002994178796124403
0.47626729499740517	0.002875740442344626
0.47674380050542986	0.0028166732536831916
0.47722078275729535	0.0027052723696473105
0.47769824222998314	0.0026693984451883995
0.47817617940095264	0.0026369875299798637
0.47865459474814054	0.00254371772810871
0.47913348874996325	0.0025654652877281393
0.4796128618853155	0.0026568207435665437
0.4800927146335692	0.0026897213515956297
0.480573047474578	0.002728399905848395
0.4810538608886736	0.0028475263420728427
0.4815351553566694	0.00322961380338668
0.48201693135986157	0.0034013140022932636
0.48249918938002545	0.003578700451906758
0.48298192989941835	0.003788392341369946
0.48346515340078067	0.0038484353858323672
0.4839488603673369	0.003846812467357623
